3996.20586	0.99343
3994.27719	0.99332
3992.34852	0.99329
3990.41985	0.99331
3988.49118	0.99339
3986.56251	0.99350
3984.63384	0.99357
3982.70517	0.99358
3980.77650	0.99358
3978.84783	0.99356
3976.91915	0.99351
3974.99048	0.99347
3973.06181	0.99345
3971.13314	0.99351
3969.20447	0.99360
3967.27580	0.99359
3965.34713	0.99350
3963.41846	0.99338
3961.48979	0.99328
3959.56112	0.99325
3957.63245	0.99329
3955.70378	0.99334
3953.77511	0.99336
3951.84643	0.99331
3949.91776	0.99327
3947.98909	0.99333
3946.06042	0.99337
3944.13175	0.99338
3942.20308	0.99348
3940.27441	0.99354
3938.34574	0.99341
3936.41707	0.99326
3934.48840	0.99321
3932.55973	0.99324
3930.63106	0.99331
3928.70238	0.99337
3926.77371	0.99335
3924.84504	0.99330
3922.91637	0.99332
3920.98770	0.99341
3919.05903	0.99356
3917.13036	0.99368
3915.20169	0.99363
3913.27302	0.99345
3911.34435	0.99330
3909.41568	0.99328
3907.48701	0.99333
3905.55834	0.99338
3903.62966	0.99342
3901.70099	0.99337
3899.77232	0.99333
3897.84365	0.99336
3895.91498	0.99335
3893.98631	0.99333
3892.05764	0.99343
3890.12897	0.99348
3888.20030	0.99334
3886.27163	0.99327
3884.34296	0.99333
3882.41429	0.99340
3880.48562	0.99356
3878.55694	0.99367
3876.62827	0.99363
3874.69960	0.99364
3872.77093	0.99372
3870.84226	0.99380
3868.91359	0.99381
3866.98492	0.99371
3865.05625	0.99374
3863.12758	0.99384
3861.19891	0.99374
3859.27024	0.99354
3857.34157	0.99345
3855.41290	0.99352
3853.48422	0.99394
3851.55555	0.99428
3849.62688	0.99407
3847.69821	0.99363
3845.76954	0.99328
3843.84087	0.99319
3841.91220	0.99330
3839.98353	0.99339
3838.05486	0.99352
3836.12619	0.99361
3834.19752	0.99357
3832.26885	0.99353
3830.34017	0.99350
3828.41150	0.99346
3826.48283	0.99341
3824.55416	0.99331
3822.62549	0.99333
3820.69682	0.99356
3818.76815	0.99358
3816.83948	0.99355
3814.91081	0.99372
3812.98214	0.99374
3811.05347	0.99355
3809.12480	0.99342
3807.19613	0.99347
3805.26745	0.99349
3803.33878	0.99343
3801.41011	0.99355
3799.48144	0.99369
3797.55277	0.99376
3795.62410	0.99383
3793.69543	0.99378
3791.76676	0.99372
3789.83809	0.99372
3787.90942	0.99370
3785.98075	0.99368
3784.05208	0.99359
3782.12341	0.99337
3780.19473	0.99324
3778.26606	0.99334
3776.33739	0.99348
3774.40872	0.99349
3772.48005	0.99340
3770.55138	0.99331
3768.62271	0.99328
3766.69404	0.99330
3764.76537	0.99335
3762.83670	0.99337
3760.90803	0.99340
3758.97936	0.99341
3757.05069	0.99329
3755.12201	0.99316
3753.19334	0.99314
3751.26467	0.99330
3749.33600	0.99334
3747.40733	0.99308
3745.47866	0.99304
3743.54999	0.99344
3741.62132	0.99357
3739.69265	0.99336
3737.76398	0.99336
3735.83531	0.99377
3733.90664	0.99404
3731.97797	0.99386
3730.04929	0.99355
3728.12062	0.99331
3726.19195	0.99327
3724.26328	0.99333
3722.33461	0.99339
3720.40594	0.99348
3718.47727	0.99355
3716.54860	0.99353
3714.61993	0.99343
3712.69126	0.99348
3710.76259	0.99373
3708.83392	0.99375
3706.90524	0.99365
3704.97657	0.99359
3703.04790	0.99352
3701.11923	0.99349
3699.19056	0.99347
3697.26189	0.99341
3695.33322	0.99328
3693.40455	0.99311
3691.47588	0.99313
3689.54721	0.99341
3687.61854	0.99348
3685.68987	0.99322
3683.76120	0.99294
3681.83252	0.99272
3679.90385	0.99256
3677.97518	0.99252
3676.04651	0.99280
3674.11784	0.99307
3672.18917	0.99292
3670.26050	0.99289
3668.33183	0.99307
3666.40316	0.99308
3664.47449	0.99299
3662.54582	0.99287
3660.61715	0.99271
3658.68848	0.99255
3656.75980	0.99254
3654.83113	0.99261
3652.90246	0.99251
3650.97379	0.99244
3649.04512	0.99268
3647.11645	0.99285
3645.18778	0.99268
3643.25911	0.99239
3641.33044	0.99215
3639.40177	0.99207
3637.47310	0.99208
3635.54443	0.99202
3633.61576	0.99193
3631.68708	0.99193
3629.75841	0.99225
3627.82974	0.99261
3625.90107	0.99235
3623.97240	0.99192
3622.04373	0.99171
3620.11506	0.99178
3618.18639	0.99199
3616.25772	0.99203
3614.32905	0.99205
3612.40038	0.99222
3610.47171	0.99234
3608.54303	0.99237
3606.61436	0.99238
3604.68569	0.99225
3602.75702	0.99207
3600.82835	0.99213
3598.89968	0.99236
3596.97101	0.99245
3595.04234	0.99245
3593.11367	0.99249
3591.18500	0.99248
3589.25633	0.99240
3587.32766	0.99245
3585.39899	0.99252
3583.47031	0.99247
3581.54164	0.99238
3579.61297	0.99232
3577.68430	0.99229
3575.75563	0.99216
3573.82696	0.99198
3571.89829	0.99186
3569.96962	0.99174
3568.04095	0.99162
3566.11228	0.99160
3564.18361	0.99155
3562.25494	0.99143
3560.32627	0.99138
3558.39759	0.99135
3556.46892	0.99125
3554.54025	0.99115
3552.61158	0.99114
3550.68291	0.99118
3548.75424	0.99125
3546.82557	0.99132
3544.89690	0.99132
3542.96823	0.99127
3541.03956	0.99124
3539.11089	0.99126
3537.18222	0.99132
3535.25355	0.99136
3533.32487	0.99142
3531.39620	0.99153
3529.46753	0.99157
3527.53886	0.99152
3525.61019	0.99158
3523.68152	0.99173
3521.75285	0.99178
3519.82418	0.99180
3517.89551	0.99191
3515.96684	0.99203
3514.03817	0.99209
3512.10950	0.99208
3510.18082	0.99206
3508.25215	0.99213
3506.32348	0.99220
3504.39481	0.99229
3502.46614	0.99244
3500.53747	0.99247
3498.60880	0.99241
3496.68013	0.99243
3494.75146	0.99254
3492.82279	0.99274
3490.89412	0.99300
3488.96545	0.99312
3487.03678	0.99300
3485.10810	0.99288
3483.17943	0.99290
3481.25076	0.99298
3479.32209	0.99298
3477.39342	0.99292
3475.46475	0.99288
3473.53608	0.99299
3471.60741	0.99312
3469.67874	0.99307
3467.75007	0.99300
3465.82140	0.99309
3463.89273	0.99325
3461.96406	0.99335
3460.03538	0.99341
3458.10671	0.99348
3456.17804	0.99357
3454.24937	0.99368
3452.32070	0.99380
3450.39203	0.99377
3448.46336	0.99354
3446.53469	0.99333
3444.60602	0.99326
3442.67735	0.99321
3440.74868	0.99300
3438.82001	0.99246
3436.89134	0.99177
3434.96266	0.99139
3433.03399	0.99137
3431.10532	0.99137
3429.17665	0.99127
3427.24798	0.99123
3425.31931	0.99123
3423.39064	0.99121
3421.46197	0.99120
3419.53330	0.99122
3417.60463	0.99122
3415.67596	0.99112
3413.74729	0.99098
3411.81862	0.99103
3409.88994	0.99130
3407.96127	0.99158
3406.03260	0.99183
3404.10393	0.99201
3402.17526	0.99212
3400.24659	0.99230
3398.31792	0.99269
3396.38925	0.99309
3394.46058	0.99321
3392.53191	0.99312
3390.60324	0.99310
3388.67457	0.99330
3386.74589	0.99362
3384.81722	0.99388
3382.88855	0.99397
3380.95988	0.99390
3379.03121	0.99382
3377.10254	0.99382
3375.17387	0.99391
3373.24520	0.99386
3371.31653	0.99361
3369.38786	0.99342
3367.45919	0.99345
3365.53052	0.99354
3363.60185	0.99359
3361.67317	0.99363
3359.74450	0.99373
3357.81583	0.99389
3355.88716	0.99394
3353.95849	0.99376
3352.02982	0.99349
3350.10115	0.99341
3348.17248	0.99350
3346.24381	0.99354
3344.31514	0.99349
3342.38647	0.99347
3340.45780	0.99343
3338.52913	0.99327
3336.60045	0.99322
3334.67178	0.99333
3332.74311	0.99338
3330.81444	0.99330
3328.88577	0.99320
3326.95710	0.99317
3325.02843	0.99323
3323.09976	0.99331
3321.17109	0.99337
3319.24242	0.99340
3317.31375	0.99338
3315.38508	0.99337
3313.45641	0.99337
3311.52773	0.99338
3309.59906	0.99337
3307.67039	0.99334
3305.74172	0.99334
3303.81305	0.99329
3301.88438	0.99321
3299.95571	0.99322
3298.02704	0.99326
3296.09837	0.99322
3294.16970	0.99313
3292.24103	0.99311
3290.31236	0.99320
3288.38368	0.99330
3286.45501	0.99328
3284.52634	0.99325
3282.59767	0.99331
3280.66900	0.99338
3278.74033	0.99341
3276.81166	0.99338
3274.88299	0.99332
3272.95432	0.99329
3271.02565	0.99333
3269.09698	0.99342
3267.16831	0.99346
3265.23964	0.99348
3263.31096	0.99352
3261.38229	0.99357
3259.45362	0.99360
3257.52495	0.99350
3255.59628	0.99338
3253.66761	0.99335
3251.73894	0.99335
3249.81027	0.99329
3247.88160	0.99324
3245.95293	0.99328
3244.02426	0.99342
3242.09559	0.99351
3240.16692	0.99343
3238.23824	0.99334
3236.30957	0.99335
3234.38090	0.99340
3232.45223	0.99341
3230.52356	0.99337
3228.59489	0.99336
3226.66622	0.99343
3224.73755	0.99344
3222.80888	0.99334
3220.88021	0.99331
3218.95154	0.99338
3217.02287	0.99340
3215.09420	0.99341
3213.16552	0.99345
3211.23685	0.99350
3209.30818	0.99355
3207.37951	0.99355
3205.45084	0.99347
3203.52217	0.99337
3201.59350	0.99336
3199.66483	0.99348
3197.73616	0.99356
3195.80749	0.99350
3193.87882	0.99345
3191.95015	0.99344
3190.02148	0.99338
3188.09280	0.99329
3186.16413	0.99330
3184.23546	0.99337
3182.30679	0.99339
3180.37812	0.99337
3178.44945	0.99334
3176.52078	0.99326
3174.59211	0.99320
3172.66344	0.99325
3170.73477	0.99331
3168.80610	0.99331
3166.87743	0.99331
3164.94875	0.99334
3163.02008	0.99338
3161.09141	0.99340
3159.16274	0.99337
3157.23407	0.99334
3155.30540	0.99326
3153.37673	0.99315
3151.44806	0.99314
3149.51939	0.99321
3147.59072	0.99324
3145.66205	0.99319
3143.73338	0.99310
3141.80471	0.99300
3139.87603	0.99289
3137.94736	0.99282
3136.01869	0.99277
3134.09002	0.99266
3132.16135	0.99246
3130.23268	0.99231
3128.30401	0.99229
3126.37534	0.99232
3124.44667	0.99230
3122.51800	0.99228
3120.58933	0.99229
3118.66066	0.99230
3116.73199	0.99229
3114.80331	0.99216
3112.87464	0.99195
3110.94597	0.99185
3109.01730	0.99184
3107.08863	0.99170
3105.15996	0.99148
3103.23129	0.99134
3101.30262	0.99129
3099.37395	0.99128
3097.44528	0.99130
3095.51661	0.99131
3093.58794	0.99128
3091.65927	0.99124
3089.73059	0.99116
3087.80192	0.99101
3085.87325	0.99071
3083.94458	0.99033
3082.01591	0.99008
3080.08724	0.98996
3078.15857	0.98990
3076.22990	0.98992
3074.30123	0.99000
3072.37256	0.99003
3070.44389	0.99000
3068.51522	0.98991
3066.58654	0.98979
3064.65787	0.98972
3062.72920	0.98976
3060.80053	0.98984
3058.87186	0.98986
3056.94319	0.98982
3055.01452	0.98975
3053.08585	0.98969
3051.15718	0.98984
3049.22851	0.99026
3047.29984	0.99076
3045.37117	0.99122
3043.44250	0.99165
3041.51382	0.99198
3039.58515	0.99219
3037.65648	0.99227
3035.72781	0.99230
3033.79914	0.99226
3031.87047	0.99213
3029.94180	0.99200
3028.01313	0.99191
3026.08446	0.99179
3024.15579	0.99159
3022.22712	0.99136
3020.29845	0.99112
3018.36978	0.99081
3016.44110	0.99047
3014.51243	0.99011
3012.58376	0.98970
3010.65509	0.98920
3008.72642	0.98858
3006.79775	0.98783
3004.86908	0.98693
3002.94041	0.98592
3001.01174	0.98479
2999.08307	0.98349
2997.15440	0.98208
2995.22573	0.98067
2993.29706	0.97926
2991.36838	0.97776
2989.43971	0.97617
2987.51104	0.97452
2985.58237	0.97277
2983.65370	0.97087
2981.72503	0.96881
2979.79636	0.96657
2977.86769	0.96409
2975.93902	0.96136
2974.01035	0.95838
2972.08168	0.95513
2970.15301	0.95170
2968.22433	0.94838
2966.29566	0.94547
2964.36699	0.94328
2962.43832	0.94208
2960.50965	0.94197
2958.58098	0.94272
2956.65231	0.94402
2954.72364	0.94568
2952.79497	0.94762
2950.86630	0.94976
2948.93763	0.95197
2947.00896	0.95410
2945.08029	0.95610
2943.15161	0.95800
2941.22294	0.95979
2939.29427	0.96131
2937.36560	0.96251
2935.43693	0.96352
2933.50826	0.96446
2931.57959	0.96530
2929.65092	0.96604
2927.72225	0.96675
2925.79358	0.96744
2923.86491	0.96811
2921.93624	0.96872
2920.00757	0.96934
2918.07889	0.97002
2916.15022	0.97071
2914.22155	0.97133
2912.29288	0.97181
2910.36421	0.97208
2908.43554	0.97202
2906.50687	0.97154
2904.57820	0.97073
2902.64953	0.96977
2900.72086	0.96879
2898.79219	0.96804
2896.86352	0.96783
2894.93485	0.96832
2893.00617	0.96948
2891.07750	0.97107
2889.14883	0.97273
2887.22016	0.97415
2885.29149	0.97518
2883.36282	0.97583
2881.43415	0.97612
2879.50548	0.97610
2877.57681	0.97597
2875.64814	0.97598
2873.71947	0.97625
2871.79080	0.97679
2869.86213	0.97751
2867.93345	0.97833
2866.00478	0.97907
2864.07611	0.97960
2862.14744	0.97999
2860.21877	0.98045
2858.29010	0.98094
2856.36143	0.98137
2854.43276	0.98186
2852.50409	0.98248
2850.57542	0.98321
2848.64675	0.98400
2846.71808	0.98482
2844.78940	0.98568
2842.86073	0.98649
2840.93206	0.98713
2839.00339	0.98766
2837.07472	0.98818
2835.14605	0.98870
2833.21738	0.98919
2831.28871	0.98961
2829.36004	0.98995
2827.43137	0.99026
2825.50270	0.99059
2823.57403	0.99092
2821.64536	0.99120
2819.71668	0.99141
2817.78801	0.99161
2815.85934	0.99179
2813.93067	0.99188
2812.00200	0.99182
2810.07333	0.99172
2808.14466	0.99172
2806.21599	0.99179
2804.28732	0.99184
2802.35865	0.99186
2800.42998	0.99181
2798.50131	0.99171
2796.57264	0.99167
2794.64396	0.99172
2792.71529	0.99171
2790.78662	0.99165
2788.85795	0.99171
2786.92928	0.99187
2785.00061	0.99199
2783.07194	0.99202
2781.14327	0.99200
2779.21460	0.99197
2777.28593	0.99191
2775.35726	0.99190
2773.42859	0.99198
2771.49992	0.99211
2769.57124	0.99224
2767.64257	0.99237
2765.71390	0.99248
2763.78523	0.99254
2761.85656	0.99252
2759.92789	0.99247
2757.99922	0.99248
2756.07055	0.99256
2754.14188	0.99264
2752.21321	0.99267
2750.28454	0.99267
2748.35587	0.99268
2746.42719	0.99275
2744.49852	0.99289
2742.56985	0.99298
2740.64118	0.99301
2738.71251	0.99302
2736.78384	0.99307
2734.85517	0.99315
2732.92650	0.99323
2730.99783	0.99332
2729.06916	0.99338
2727.14049	0.99334
2725.21182	0.99331
2723.28315	0.99335
2721.35447	0.99341
2719.42580	0.99343
2717.49713	0.99341
2715.56846	0.99338
2713.63979	0.99341
2711.71112	0.99347
2709.78245	0.99348
2707.85378	0.99349
2705.92511	0.99351
2703.99644	0.99350
2702.06777	0.99348
2700.13910	0.99345
2698.21043	0.99342
2696.28175	0.99344
2694.35308	0.99345
2692.42441	0.99341
2690.49574	0.99340
2688.56707	0.99347
2686.63840	0.99356
2684.70973	0.99360
2682.78106	0.99356
2680.85239	0.99352
2678.92372	0.99356
2676.99505	0.99370
2675.06638	0.99379
2673.13771	0.99376
2671.20903	0.99371
2669.28036	0.99371
2667.35169	0.99370
2665.42302	0.99361
2663.49435	0.99347
2661.56568	0.99336
2659.63701	0.99326
2657.70834	0.99320
2655.77967	0.99322
2653.85100	0.99325
2651.92233	0.99322
2649.99366	0.99319
2648.06499	0.99314
2646.13631	0.99308
2644.20764	0.99306
2642.27897	0.99308
2640.35030	0.99310
2638.42163	0.99308
2636.49296	0.99303
2634.56429	0.99292
2632.63562	0.99278
2630.70695	0.99264
2628.77828	0.99258
2626.84961	0.99264
2624.92094	0.99275
2622.99226	0.99285
2621.06359	0.99298
2619.13492	0.99309
2617.20625	0.99314
2615.27758	0.99318
2613.34891	0.99325
2611.42024	0.99329
2609.49157	0.99330
2607.56290	0.99332
2605.63423	0.99335
2603.70556	0.99334
2601.77689	0.99329
2599.84822	0.99326
2597.91954	0.99329
2595.99087	0.99338
2594.06220	0.99345
2592.13353	0.99345
2590.20486	0.99346
2588.27619	0.99357
2586.34752	0.99367
2584.41885	0.99356
2582.49018	0.99336
2580.56151	0.99334
2578.63284	0.99350
2576.70417	0.99370
2574.77550	0.99387
2572.84682	0.99399
2570.91815	0.99404
2568.98948	0.99409
2567.06081	0.99418
2565.13214	0.99431
2563.20347	0.99443
2561.27480	0.99444
2559.34613	0.99441
2557.41746	0.99449
2555.48879	0.99465
2553.56012	0.99471
2551.63145	0.99472
2549.70278	0.99485
2547.77410	0.99501
2545.84543	0.99501
2543.91676	0.99490
2541.98809	0.99495
2540.05942	0.99511
2538.13075	0.99526
2536.20208	0.99530
2534.27341	0.99518
2532.34474	0.99510
2530.41607	0.99522
2528.48740	0.99536
2526.55873	0.99535
2524.63005	0.99530
2522.70138	0.99531
2520.77271	0.99531
2518.84404	0.99535
2516.91537	0.99544
2514.98670	0.99555
2513.05803	0.99566
2511.12936	0.99578
2509.20069	0.99593
2507.27202	0.99612
2505.34335	0.99629
2503.41468	0.99639
2501.48601	0.99643
2499.55733	0.99645
2497.62866	0.99647
2495.69999	0.99643
2493.77132	0.99631
2491.84265	0.99625
2489.91398	0.99636
2487.98531	0.99657
2486.05664	0.99672
2484.12797	0.99675
2482.19930	0.99673
2480.27063	0.99666
2478.34196	0.99657
2476.41329	0.99646
2474.48461	0.99645
2472.55594	0.99652
2470.62727	0.99645
2468.69860	0.99624
2466.76993	0.99610
2464.84126	0.99603
2462.91259	0.99592
2460.98392	0.99578
2459.05525	0.99571
2457.12658	0.99565
2455.19791	0.99554
2453.26924	0.99534
2451.34057	0.99512
2449.41189	0.99506
2447.48322	0.99517
2445.55455	0.99526
2443.62588	0.99525
2441.69721	0.99519
2439.76854	0.99502
2437.83987	0.99488
2435.91120	0.99492
2433.98253	0.99501
2432.05386	0.99499
2430.12519	0.99482
2428.19652	0.99457
2426.26784	0.99441
2424.33917	0.99438
2422.41050	0.99433
2420.48183	0.99420
2418.55316	0.99414
2416.62449	0.99414
2414.69582	0.99408
2412.76715	0.99397
2410.83848	0.99385
2408.90981	0.99371
2406.98114	0.99362
2405.05247	0.99358
2403.12380	0.99349
2401.19512	0.99337
2399.26645	0.99327
2397.33778	0.99324
2395.40911	0.99321
2393.48044	0.99310
2391.55177	0.99295
2389.62310	0.99284
2387.69443	0.99279
2385.76576	0.99277
2383.83709	0.99281
2381.90842	0.99294
2379.97975	0.99314
2378.05108	0.99339
2376.12240	0.99368
2374.19373	0.99395
2372.26506	0.99408
2370.33639	0.99424
2368.40772	0.99470
2366.47905	0.99538
2364.55038	0.99603
2362.62171	0.99640
2360.69304	0.99633
2358.76437	0.99599
2356.83570	0.99567
2354.90703	0.99550
2352.97836	0.99542
2351.04968	0.99527
2349.12101	0.99505
2347.19234	0.99503
2345.26367	0.99533
2343.33500	0.99563
2341.40633	0.99576
2339.47766	0.99580
2337.54899	0.99581
2335.62032	0.99588
2333.69165	0.99590
2331.76298	0.99578
2329.83431	0.99558
2327.90564	0.99518
2325.97696	0.99433
2324.04829	0.99339
2322.11962	0.99311
2320.19095	0.99337
2318.26228	0.99361
2316.33361	0.99368
2314.40494	0.99377
2312.47627	0.99394
2310.54760	0.99403
2308.61893	0.99392
2306.69026	0.99374
2304.76159	0.99362
2302.83291	0.99361
2300.90424	0.99361
2298.97557	0.99355
2297.04690	0.99343
2295.11823	0.99322
2293.18956	0.99296
2291.26089	0.99269
2289.33222	0.99231
2287.40355	0.99188
2285.47488	0.99166
2283.54621	0.99176
2281.61754	0.99201
2279.68887	0.99220
2277.76019	0.99237
2275.83152	0.99264
2273.90285	0.99296
2271.97418	0.99320
2270.04551	0.99336
2268.11684	0.99355
2266.18817	0.99380
2264.25950	0.99412
2262.33083	0.99427
2260.40216	0.99402
2258.47349	0.99365
2256.54482	0.99368
2254.61615	0.99411
2252.68747	0.99459
2250.75880	0.99488
2248.83013	0.99496
2246.90146	0.99484
2244.97279	0.99459
2243.04412	0.99444
2241.11545	0.99452
2239.18678	0.99473
2237.25811	0.99493
2235.32944	0.99508
2233.40077	0.99519
2231.47210	0.99522
2229.54343	0.99524
2227.61475	0.99534
2225.68608	0.99545
2223.75741	0.99542
2221.82874	0.99525
2219.90007	0.99519
2217.97140	0.99532
2216.04273	0.99534
2214.11406	0.99524
2212.18539	0.99528
2210.25672	0.99551
2208.32805	0.99579
2206.39938	0.99604
2204.47070	0.99608
2202.54203	0.99584
2200.61336	0.99565
2198.68469	0.99585
2196.75602	0.99635
2194.82735	0.99676
2192.89868	0.99684
2190.97001	0.99647
2189.04134	0.99583
2187.11267	0.99546
2185.18400	0.99584
2183.25533	0.99679
2181.32666	0.99768
2179.39798	0.99799
2177.46931	0.99774
2175.54064	0.99759
2173.61197	0.99764
2171.68330	0.99727
2169.75463	0.99655
2167.82596	0.99617
2165.89729	0.99609
2163.96862	0.99557
2162.03995	0.99498
2160.11128	0.99624
2158.18261	0.99923
2156.25394	1.00081
2154.32526	1.00019
2152.39659	0.99916
2150.46792	0.99841
2148.53925	0.99797
2146.61058	0.99790
2144.68191	0.99785
2142.75324	0.99763
2140.82457	0.99736
2138.89590	0.99692
2136.96723	0.99652
2135.03856	0.99672
2133.10989	0.99711
2131.18122	0.99695
2129.25254	0.99643
2127.32387	0.99596
2125.39520	0.99552
2123.46653	0.99506
2121.53786	0.99466
2119.60919	0.99438
2117.68052	0.99422
2115.75185	0.99399
2113.82318	0.99359
2111.89451	0.99323
2109.96584	0.99304
2108.03717	0.99305
2106.10849	0.99324
2104.17982	0.99338
2102.25115	0.99331
2100.32248	0.99331
2098.39381	0.99355
2096.46514	0.99383
2094.53647	0.99413
2092.60780	0.99427
2090.67913	0.99405
2088.75046	0.99368
2086.82179	0.99343
2084.89312	0.99327
2082.96445	0.99316
2081.03577	0.99310
2079.10710	0.99302
2077.17843	0.99303
2075.24976	0.99316
2073.32109	0.99328
2071.39242	0.99334
2069.46375	0.99336
2067.53508	0.99337
2065.60641	0.99336
2063.67774	0.99337
2061.74907	0.99350
2059.82040	0.99363
2057.89173	0.99366
2055.96305	0.99380
2054.03438	0.99398
2052.10571	0.99363
2050.17704	0.99320
2048.24837	0.99362
2046.31970	0.99455
2044.39103	0.99518
2042.46236	0.99559
2040.53369	0.99598
2038.60502	0.99626
2036.67635	0.99666
2034.74768	0.99731
2032.81901	0.99789
2030.89033	0.99807
2028.96166	0.99794
2027.03299	0.99802
2025.10432	0.99826
2023.17565	0.99800
2021.24698	0.99734
2019.31831	0.99689
2017.38964	0.99684
2015.46097	0.99689
2013.53230	0.99660
2011.60363	0.99613
2009.67496	0.99600
2007.74629	0.99628
2005.81761	0.99659
2003.88894	0.99675
2001.96027	0.99680
2000.03160	0.99655
1998.10293	0.99611
1996.17426	0.99589
1994.24559	0.99596
1992.31692	0.99600
1990.38825	0.99567
1988.45958	0.99499
1986.53091	0.99427
1984.60224	0.99362
1982.67356	0.99289
1980.74489	0.99235
1978.81622	0.99268
1976.88755	0.99376
1974.95888	0.99457
1973.03021	0.99474
1971.10154	0.99467
1969.17287	0.99450
1967.24420	0.99414
1965.31553	0.99363
1963.38686	0.99308
1961.45819	0.99256
1959.52952	0.99215
1957.60084	0.99169
1955.67217	0.99096
1953.74350	0.99045
1951.81483	0.99057
1949.88616	0.99090
1947.95749	0.99106
1946.02882	0.99130
1944.10015	0.99184
1942.17148	0.99239
1940.24281	0.99264
1938.31414	0.99276
1936.38547	0.99313
1934.45680	0.99382
1932.52812	0.99448
1930.59945	0.99480
1928.67078	0.99480
1926.74211	0.99480
1924.81344	0.99494
1922.88477	0.99504
1920.95610	0.99497
1919.02743	0.99489
1917.09876	0.99496
1915.17009	0.99501
1913.24142	0.99507
1911.31275	0.99512
1909.38408	0.99506
1907.45540	0.99491
1905.52673	0.99476
1903.59806	0.99472
1901.66939	0.99473
1899.74072	0.99469
1897.81205	0.99467
1895.88338	0.99480
1893.95471	0.99500
1892.02604	0.99512
1890.09737	0.99528
1888.16870	0.99535
1886.24003	0.99530
1884.31135	0.99525
1882.38268	0.99524
1880.45401	0.99522
1878.52534	0.99519
1876.59667	0.99517
1874.66800	0.99516
1872.73933	0.99517
1870.81066	0.99522
1868.88199	0.99537
1866.95332	0.99540
1865.02465	0.99517
1863.09598	0.99486
1861.16731	0.99457
1859.23863	0.99442
1857.30996	0.99427
1855.38129	0.99401
1853.45262	0.99374
1851.52395	0.99357
1849.59528	0.99345
1847.66661	0.99323
1845.73794	0.99291
1843.80927	0.99256
1841.88060	0.99226
1839.95193	0.99194
1838.02326	0.99150
1836.09459	0.99102
1834.16591	0.99060
1832.23724	0.99028
1830.30857	0.98986
1828.37990	0.98937
1826.45123	0.98894
1824.52256	0.98855
1822.59389	0.98827
1820.66522	0.98820
1818.73655	0.98838
1816.80788	0.98861
1814.87921	0.98871
1812.95054	0.98862
1811.02187	0.98842
1809.09319	0.98825
1807.16452	0.98810
1805.23585	0.98806
1803.30718	0.98800
1801.37851	0.98794
1799.44984	0.98777
1797.52117	0.98743
1795.59250	0.98708
1793.66383	0.98675
1791.73516	0.98650
1789.80649	0.98622
1787.87782	0.98597
1785.94915	0.98569
1784.02047	0.98538
1782.09180	0.98512
1780.16313	0.98486
1778.23446	0.98457
1776.30579	0.98416
1774.37712	0.98381
1772.44845	0.98349
1770.51978	0.98310
1768.59111	0.98268
1766.66244	0.98217
1764.73377	0.98166
1762.80510	0.98097
1760.87642	0.98010
1758.94775	0.97901
1757.01908	0.97770
1755.09041	0.97625
1753.16174	0.97466
1751.23307	0.97278
1749.30440	0.97009
1747.37573	0.96687
1745.44706	0.96288
1743.51839	0.95745
1741.58972	0.94944
1739.66105	0.93701
1737.73238	0.92236
1735.80370	0.90417
1733.87503	0.87265
1731.94636	0.83607
1730.01769	0.80506
1728.08902	0.77398
1726.16035	0.74315
1724.23168	0.71167
1722.30301	0.68071
1720.37434	0.65289
1718.44567	0.62314
1716.51700	0.58912
1714.58833	0.56291
1712.65966	0.54581
1710.73098	0.53682
1708.80231	0.53886
1706.87364	0.55992
1704.94497	0.60166
1703.01630	0.64335
1701.08763	0.68947
1699.15896	0.74760
1697.23029	0.79044
1695.30162	0.82277
1693.37295	0.84469
1691.44428	0.85764
1689.51561	0.86958
1687.58694	0.87919
1685.65826	0.88653
1683.72959	0.89624
1681.80092	0.90242
1679.87225	0.90370
1677.94358	0.90448
1676.01491	0.90670
1674.08624	0.91074
1672.15757	0.91514
1670.22890	0.92175
1668.30023	0.93073
1666.37156	0.93655
1664.44289	0.94079
1662.51421	0.94613
1660.58554	0.95095
1658.65687	0.95371
1656.72820	0.95516
1654.79953	0.95678
1652.87086	0.96060
1650.94219	0.96309
1649.01352	0.96347
1647.08485	0.96488
1645.15618	0.96697
1643.22751	0.96786
1641.29884	0.96837
1639.37017	0.96885
1637.44149	0.96965
1635.51282	0.97127
1633.58415	0.97255
1631.65548	0.97291
1629.72681	0.97328
1627.79814	0.97400
1625.86947	0.97466
1623.94080	0.97523
1622.01213	0.97549
1620.08346	0.97510
1618.15479	0.97406
1616.22612	0.97260
1614.29745	0.97171
1612.36877	0.97178
1610.44010	0.97277
1608.51143	0.97447
1606.58276	0.97631
1604.65409	0.97790
1602.72542	0.97929
1600.79675	0.98052
1598.86808	0.98140
1596.93941	0.98188
1595.01074	0.98204
1593.08207	0.98205
1591.15340	0.98201
1589.22473	0.98177
1587.29605	0.98081
1585.36738	0.97832
1583.43871	0.97375
1581.51004	0.96759
1579.58137	0.96199
1577.65270	0.95957
1575.72403	0.96269
1573.79536	0.96769
1571.86669	0.97130
1569.93802	0.97516
1568.00935	0.97868
1566.08068	0.98051
1564.15200	0.98149
1562.22333	0.98204
1560.29466	0.98256
1558.36599	0.98384
1556.43732	0.98459
1554.50865	0.98469
1552.57998	0.98484
1550.65131	0.98504
1548.72264	0.98525
1546.79397	0.98536
1544.86530	0.98536
1542.93663	0.98531
1541.00796	0.98509
1539.07928	0.98468
1537.15061	0.98408
1535.22194	0.98329
1533.29327	0.98227
1531.36460	0.98136
1529.43593	0.98075
1527.50726	0.98045
1525.57859	0.98054
1523.64992	0.98088
1521.72125	0.98136
1519.79258	0.98157
1517.86391	0.98118
1515.93524	0.98031
1514.00656	0.97886
1512.07789	0.97647
1510.14922	0.97248
1508.22055	0.96322
1506.29188	0.94532
1504.36321	0.93886
1502.43454	0.94436
1500.50587	0.95494
1498.57720	0.96682
1496.64853	0.97595
1494.71986	0.98032
1492.79119	0.98156
1490.86252	0.98133
1488.93384	0.97970
1487.00517	0.97672
1485.07650	0.97299
1483.14783	0.96830
1481.21916	0.96217
1479.29049	0.95532
1477.36182	0.94864
1475.43315	0.94237
1473.50448	0.93717
1471.57581	0.93380
1469.64714	0.93216
1467.71847	0.93147
1465.78980	0.93144
1463.86112	0.93095
1461.93245	0.92846
1460.00378	0.92460
1458.07511	0.92105
1456.14644	0.92013
1454.21777	0.92029
1452.28910	0.92106
1450.36043	0.92404
1448.43176	0.93010
1446.50309	0.93785
1444.57442	0.94472
1442.64575	0.95037
1440.71707	0.95475
1438.78840	0.95791
1436.85973	0.96116
1434.93106	0.96430
1433.00239	0.96650
1431.07372	0.96871
1429.14505	0.97111
1427.21638	0.97255
1425.28771	0.97263
1423.35904	0.97137
1421.43037	0.96837
1419.50170	0.96117
1417.57303	0.94674
1415.64435	0.92669
1413.71568	0.90016
1411.78701	0.86814
1409.85834	0.84202
1407.92967	0.83505
1406.00100	0.85015
1404.07233	0.87719
1402.14366	0.89851
1400.21499	0.90977
1398.28632	0.91409
1396.35765	0.91294
1394.42898	0.90891
1392.50031	0.90491
1390.57163	0.90200
1388.64296	0.90029
1386.71429	0.90041
1384.78562	0.90264
1382.85695	0.90676
1380.92828	0.91277
1378.99961	0.91983
1377.07094	0.92680
1375.14227	0.93382
1373.21360	0.94055
1371.28493	0.94545
1369.35626	0.94895
1367.42759	0.95197
1365.49891	0.95456
1363.57024	0.95722
1361.64157	0.95995
1359.71290	0.96169
1357.78423	0.96210
1355.85556	0.96128
1353.92689	0.95933
1351.99822	0.95712
1350.06955	0.95614
1348.14088	0.95722
1346.21221	0.95963
1344.28354	0.96185
1342.35486	0.96312
1340.42619	0.96344
1338.49752	0.96263
1336.56885	0.96050
1334.64018	0.95701
1332.71151	0.95197
1330.78284	0.94527
1328.85417	0.93726
1326.92550	0.92863
1324.99683	0.92037
1323.06816	0.91382
1321.13949	0.91024
1319.21082	0.91018
1317.28214	0.91274
1315.35347	0.91587
1313.42480	0.91764
1311.49613	0.91687
1309.56746	0.91342
1307.63879	0.90789
1305.71012	0.90135
1303.78145	0.89487
1301.85278	0.88863
1299.92411	0.88168
1297.99544	0.87258
1296.06677	0.86050
1294.13810	0.84530
1292.20942	0.82727
1290.28075	0.80705
1288.35208	0.78549
1286.42341	0.76344
1284.49474	0.74148
1282.56607	0.71959
1280.63740	0.69756
1278.70873	0.67533
1276.78006	0.65289
1274.85139	0.63027
1272.92272	0.60765
1270.99405	0.58558
1269.06538	0.56530
1267.13670	0.54835
1265.20803	0.53617
1263.27936	0.52989
1261.35069	0.52929
1259.42202	0.53230
1257.49335	0.53577
1255.56468	0.53741
1253.63601	0.53645
1251.70734	0.53305
1249.77867	0.52783
1247.85000	0.52185
1245.92133	0.51713
1243.99266	0.51640
1242.06398	0.52198
1240.13531	0.53489
1238.20664	0.55482
1236.27797	0.58043
1234.34930	0.60952
1232.42063	0.63959
1230.49196	0.66859
1228.56329	0.69532
1226.63462	0.71931
1224.70595	0.74050
1222.77728	0.75879
1220.84861	0.77424
1218.91993	0.78721
1216.99126	0.79811
1215.06259	0.80686
1213.13392	0.81287
1211.20525	0.81559
1209.27658	0.81607
1207.34791	0.81759
1205.41924	0.82344
1203.49057	0.83421
1201.56190	0.84806
1199.63323	0.86265
1197.70456	0.87631
1195.77589	0.88816
1193.84721	0.89794
1191.91854	0.90581
1189.98987	0.91212
1188.06120	0.91703
1186.13253	0.92047
1184.20386	0.92214
1182.27519	0.92178
1180.34652	0.91953
1178.41785	0.91592
1176.48918	0.91193
1174.56051	0.90898
1172.63184	0.90870
1170.70317	0.91208
1168.77449	0.91869
1166.84582	0.92658
1164.91715	0.93335
1162.98848	0.93769
1161.05981	0.93962
1159.13114	0.93969
1157.20247	0.93830
1155.27380	0.93574
1153.34513	0.93223
1151.41646	0.92813
1149.48779	0.92370
1147.55912	0.91905
1145.63045	0.91416
1143.70177	0.90881
1141.77310	0.90238
1139.84443	0.89392
1137.91576	0.88232
1135.98709	0.86649
1134.05842	0.84562
1132.12975	0.81969
1130.20108	0.78966
1128.27241	0.75753
1126.34374	0.72566
1124.41507	0.69601
1122.48640	0.66983
1120.55772	0.64800
1118.62905	0.63172
1116.70038	0.62274
1114.77171	0.62206
1112.84304	0.62722
1110.91437	0.63104
1108.98570	0.62502
1107.05703	0.60602
1105.12836	0.57891
1103.19969	0.55227
1101.27102	0.53288
1099.34235	0.52403
1097.41368	0.52616
1095.48500	0.53784
1093.55633	0.55606
1091.62766	0.57688
1089.69899	0.59675
1087.77032	0.61416
1085.84165	0.63052
1083.91298	0.64909
1081.98431	0.67229
1080.05564	0.69953
1078.12697	0.72777
1076.19830	0.75354
1074.26963	0.77476
1072.34096	0.79114
1070.41228	0.80351
1068.48361	0.81311
1066.55494	0.82103
1064.62627	0.82802
1062.69760	0.83448
1060.76893	0.84057
1058.84026	0.84622
1056.91159	0.85136
1054.98292	0.85585
1053.05425	0.85935
1051.12558	0.86144
1049.19691	0.86194
1047.26824	0.86135
1045.33956	0.86040
1043.41089	0.85938
1041.48222	0.85812
1039.55355	0.85642
1037.62488	0.85419
1035.69621	0.85123
1033.76754	0.84725
1031.83887	0.84242
1029.91020	0.83792
1027.98153	0.83420
1026.05286	0.82763
1024.12419	0.81000
1022.19551	0.77413
1020.26684	0.72342
1018.33817	0.67780
1016.40950	0.66491
1014.48083	0.69421
1012.55216	0.74529
1010.62349	0.79267
1008.69482	0.82743
1006.76615	0.85087
1004.83748	0.86550
1002.90881	0.87373
1000.98014	0.87750
999.05147	0.87790
997.12279	0.87558
995.19412	0.87136
993.26545	0.86654
991.33678	0.86257
989.40811	0.86020
987.47944	0.85926
985.55077	0.85936
983.62210	0.86036
981.69343	0.86213
979.76476	0.86412
977.83609	0.86534
975.90742	0.86473
973.97875	0.86190
972.05007	0.85731
970.12140	0.85187
968.19273	0.84635
966.26406	0.84121
964.33539	0.83681
962.40672	0.83342
960.47805	0.83102
958.54938	0.82934
956.62071	0.82829
954.69204	0.82796
952.76337	0.82826
950.83470	0.82864
948.90603	0.82805
946.97735	0.82514
945.04868	0.81911
943.12001	0.81020
941.19134	0.79969
939.26267	0.78954
937.33400	0.78181
935.40533	0.77788
933.47666	0.77833
931.54799	0.78335
929.61932	0.79270
927.69065	0.80492
925.76198	0.81730
923.83331	0.82700
921.90463	0.83261
919.97596	0.83459
918.04729	0.83522
916.11862	0.83817
914.18995	0.84626
912.26128	0.85868
910.33261	0.87191
908.40394	0.88310
906.47527	0.89141
904.54660	0.89739
902.61793	0.90185
900.68926	0.90524
898.76058	0.90777
896.83191	0.90978
894.90324	0.91162
892.97457	0.91329
891.04590	0.91421
889.11723	0.91359
887.18856	0.91040
885.25989	0.90345
883.33122	0.89162
881.40255	0.87446
879.47388	0.85253
877.54521	0.82716
875.61654	0.80172
873.68786	0.78627
871.75919	0.79338
869.83052	0.82098
867.90185	0.85177
865.97318	0.87321
864.04451	0.88518
862.11584	0.89174
860.18717	0.89559
858.25850	0.89785
856.32983	0.89903
854.40116	0.89941
852.47249	0.89918
850.54382	0.89850
848.61514	0.89764
846.68647	0.89699
844.75780	0.89699
842.82913	0.89792
840.90046	0.89958
838.97179	0.90150
837.04312	0.90333
835.11445	0.90478
833.18578	0.90578
831.25711	0.90648
829.32844	0.90695
827.39977	0.90717
825.47110	0.90725
823.54242	0.90727
821.61375	0.90691
819.68508	0.90580
817.75641	0.90395
815.82774	0.90187
813.89907	0.90049
811.97040	0.90078
810.04173	0.90292
808.11306	0.90589
806.18439	0.90846
804.25572	0.91029
802.32705	0.91115
800.39837	0.90923
798.46970	0.90264
796.54103	0.89399
794.61236	0.89005
792.68369	0.89418
790.75502	0.90306
788.82635	0.91222
786.89768	0.91984
784.96901	0.92561
783.04034	0.92972
781.11167	0.93283
779.18300	0.93554
777.25433	0.93794
775.32565	0.93987
773.39698	0.94140
771.46831	0.94266
769.53964	0.94368
767.61097	0.94446
765.68230	0.94485
763.75363	0.94469
761.82496	0.94388
759.89629	0.94214
757.96762	0.93899
756.03895	0.93433
754.11028	0.92898
752.18161	0.92422
750.25293	0.92110
748.32426	0.91981
746.39559	0.91914
744.46692	0.91626
742.53825	0.90661
740.60958	0.88454
738.68091	0.84636
736.75224	0.79370
734.82357	0.73289
732.89490	0.67039
730.96623	0.60904
729.03756	0.55077
727.10889	0.50430
725.18021	0.48614
723.25154	0.50715
721.32287	0.56153
719.39420	0.62973
717.46553	0.69093
715.53686	0.73713
713.60819	0.77030
711.67952	0.79252
709.75085	0.80477
707.82218	0.81004
705.89351	0.81410
703.96484	0.82187
702.03616	0.83378
700.10749	0.84686
698.17882	0.85835
696.25015	0.86723
694.32148	0.87366
692.39281	0.87829
690.46414	0.88188
688.53547	0.88478
686.60680	0.88655
684.67813	0.88692
682.74946	0.88655
680.82079	0.88669
678.89212	0.88851
676.96344	0.89173
675.03477	0.89506
673.10610	0.89773
671.17743	0.89962
669.24876	0.90156
667.32009	0.90450
665.39142	0.90663
663.46275	0.90761
661.53408	0.90840
659.60541	0.90919
657.67674	0.90977
655.74807	0.91017
653.81940	0.91082
651.89072	0.91184
649.96205	0.91277
648.03338	0.91341
646.10471	0.91417
644.17604	0.91515
642.24737	0.91594
640.31870	0.91643
638.39003	0.91614
636.46136	0.91364
634.53269	0.90805
632.60402	0.90264
630.67535	0.90292
628.74668	0.90869
626.81800	0.91417
624.88933	0.91580
622.96066	0.91487
621.03199	0.91372
619.10332	0.91323
617.17465	0.91448
615.24598	0.91769
613.31731	0.92044
611.38864	0.92088
609.45997	0.91962
607.53130	0.91862
605.60263	0.91857
603.67396	0.91926
601.74528	0.92065
599.81661	0.92147
