3996.20586	0.94867
3994.27719	0.94869
3992.34852	0.94875
3990.41985	0.94882
3988.49118	0.94889
3986.56251	0.94891
3984.63384	0.94884
3982.70517	0.94879
3980.77650	0.94885
3978.84783	0.94894
3976.91915	0.94893
3974.99048	0.94888
3973.06181	0.94889
3971.13314	0.94897
3969.20447	0.94909
3967.27580	0.94918
3965.34713	0.94916
3963.41846	0.94902
3961.48979	0.94888
3959.56112	0.94881
3957.63245	0.94883
3955.70378	0.94892
3953.77511	0.94893
3951.84643	0.94891
3949.91776	0.94900
3947.98909	0.94919
3946.06042	0.94914
3944.13175	0.94900
3942.20308	0.94911
3940.27441	0.94926
3938.34574	0.94922
3936.41707	0.94910
3934.48840	0.94901
3932.55973	0.94921
3930.63106	0.94955
3928.70238	0.94958
3926.77371	0.94940
3924.84504	0.94939
3922.91637	0.94942
3920.98770	0.94929
3919.05903	0.94928
3917.13036	0.94954
3915.20169	0.94980
3913.27302	0.94981
3911.34435	0.94964
3909.41568	0.94936
3907.48701	0.94893
3905.55834	0.94869
3903.62966	0.94911
3901.70099	0.94976
3899.77232	0.95015
3897.84365	0.95024
3895.91498	0.94988
3893.98631	0.94933
3892.05764	0.94929
3890.12897	0.94955
3888.20030	0.94932
3886.27163	0.94920
3884.34296	0.94953
3882.41429	0.94970
3880.48562	0.94999
3878.55694	0.95021
3876.62827	0.94986
3874.69960	0.94960
3872.77093	0.94958
3870.84226	0.94968
3868.91359	0.94995
3866.98492	0.94984
3865.05625	0.94965
3863.12758	0.94990
3861.19891	0.94996
3859.27024	0.94948
3857.34157	0.94870
3855.41290	0.94821
3853.48422	0.94945
3851.55555	0.95117
3849.62688	0.95105
3847.69821	0.95021
3845.76954	0.94943
3843.84087	0.94901
3841.91220	0.94898
3839.98353	0.94922
3838.05486	0.94979
3836.12619	0.95019
3834.19752	0.95006
3832.26885	0.94981
3830.34017	0.94955
3828.41150	0.94921
3826.48283	0.94904
3824.55416	0.94879
3822.62549	0.94852
3820.69682	0.94911
3818.76815	0.94964
3816.83948	0.94969
3814.91081	0.95004
3812.98214	0.95002
3811.05347	0.94942
3809.12480	0.94891
3807.19613	0.94906
3805.26745	0.94932
3803.33878	0.94922
3801.41011	0.94977
3799.48144	0.95036
3797.55277	0.95017
3795.62410	0.95002
3793.69543	0.94989
3791.76676	0.94957
3789.83809	0.94933
3787.90942	0.94920
3785.98075	0.94911
3784.05208	0.94901
3782.12341	0.94882
3780.19473	0.94892
3778.26606	0.94936
3776.33739	0.94947
3774.40872	0.94916
3772.48005	0.94888
3770.55138	0.94892
3768.62271	0.94911
3766.69404	0.94917
3764.76537	0.94920
3762.83670	0.94905
3760.90803	0.94879
3758.97936	0.94889
3757.05069	0.94894
3755.12201	0.94839
3753.19334	0.94777
3751.26467	0.94817
3749.33600	0.94912
3747.40733	0.94892
3745.47866	0.94871
3743.54999	0.94949
3741.62132	0.94969
3739.69265	0.94899
3737.76398	0.94832
3735.83531	0.94843
3733.90664	0.94932
3731.97797	0.94992
3730.04929	0.94977
3728.12062	0.94927
3726.19195	0.94902
3724.26328	0.94922
3722.33461	0.94951
3720.40594	0.94963
3718.47727	0.94943
3716.54860	0.94893
3714.61993	0.94839
3712.69126	0.94845
3710.76259	0.94952
3708.83392	0.95020
3706.90524	0.94990
3704.97657	0.94937
3703.04790	0.94925
3701.11923	0.94962
3699.19056	0.94973
3697.26189	0.94943
3695.33322	0.94907
3693.40455	0.94870
3691.47588	0.94849
3689.54721	0.94916
3687.61854	0.95012
3685.68987	0.95013
3683.76120	0.94961
3681.83252	0.94920
3679.90385	0.94897
3677.97518	0.94883
3676.04651	0.94934
3674.11784	0.95001
3672.18917	0.94970
3670.26050	0.94973
3668.33183	0.95043
3666.40316	0.95042
3664.47449	0.94996
3662.54582	0.94967
3660.61715	0.94949
3658.68848	0.94929
3656.75980	0.94936
3654.83113	0.94949
3652.90246	0.94907
3650.97379	0.94883
3649.04512	0.95004
3647.11645	0.95125
3645.18778	0.95111
3643.25911	0.95064
3641.33044	0.95035
3639.40177	0.95021
3637.47310	0.95012
3635.54443	0.95011
3633.61576	0.95007
3631.68708	0.94981
3629.75841	0.95012
3627.82974	0.95140
3625.90107	0.95164
3623.97240	0.95092
3622.04373	0.95030
3620.11506	0.95036
3618.18639	0.95099
3616.25772	0.95120
3614.32905	0.95106
3612.40038	0.95113
3610.47171	0.95128
3608.54303	0.95149
3606.61436	0.95168
3604.68569	0.95140
3602.75702	0.95088
3600.82835	0.95071
3598.89968	0.95092
3596.97101	0.95114
3595.04234	0.95131
3593.11367	0.95137
3591.18500	0.95113
3589.25633	0.95092
3587.32766	0.95139
3585.39899	0.95198
3583.47031	0.95187
3581.54164	0.95152
3579.61297	0.95140
3577.68430	0.95145
3575.75563	0.95154
3573.82696	0.95162
3571.89829	0.95153
3569.96962	0.95134
3568.04095	0.95163
3566.11228	0.95250
3564.18361	0.95278
3562.25494	0.95245
3560.32627	0.95228
3558.39759	0.95236
3556.46892	0.95232
3554.54025	0.95216
3552.61158	0.95221
3550.68291	0.95240
3548.75424	0.95244
3546.82557	0.95252
3544.89690	0.95287
3542.96823	0.95312
3541.03956	0.95303
3539.11089	0.95281
3537.18222	0.95272
3535.25355	0.95275
3533.32487	0.95274
3531.39620	0.95265
3529.46753	0.95261
3527.53886	0.95265
3525.61019	0.95264
3523.68152	0.95264
3521.75285	0.95276
3519.82418	0.95283
3517.89551	0.95275
3515.96684	0.95263
3514.03817	0.95253
3512.10950	0.95256
3510.18082	0.95273
3508.25215	0.95291
3506.32348	0.95298
3504.39481	0.95307
3502.46614	0.95335
3500.53747	0.95352
3498.60880	0.95341
3496.68013	0.95334
3494.75146	0.95348
3492.82279	0.95363
3490.89412	0.95369
3488.96545	0.95383
3487.03678	0.95401
3485.10810	0.95405
3483.17943	0.95407
3481.25076	0.95419
3479.32209	0.95434
3477.39342	0.95446
3475.46475	0.95455
3473.53608	0.95459
3471.60741	0.95468
3469.67874	0.95489
3467.75007	0.95501
3465.82140	0.95496
3463.89273	0.95494
3461.96406	0.95500
3460.03538	0.95504
3458.10671	0.95502
3456.17804	0.95508
3454.24937	0.95524
3452.32070	0.95534
3450.39203	0.95540
3448.46336	0.95557
3446.53469	0.95580
3444.60602	0.95595
3442.67735	0.95608
3440.74868	0.95624
3438.82001	0.95631
3436.89134	0.95636
3434.96266	0.95649
3433.03399	0.95655
3431.10532	0.95645
3429.17665	0.95634
3427.24798	0.95631
3425.31931	0.95612
3423.39064	0.95536
3421.46197	0.95376
3419.53330	0.95096
3417.60463	0.94655
3415.67596	0.94017
3413.74729	0.93207
3411.81862	0.92447
3409.88994	0.92081
3407.96127	0.92194
3406.03260	0.92464
3404.10393	0.92528
3402.17526	0.92287
3400.24659	0.91889
3398.31792	0.91545
3396.38925	0.91358
3394.46058	0.91264
3392.53191	0.91109
3390.60324	0.90745
3388.67457	0.90151
3386.74589	0.89515
3384.81722	0.89128
3382.88855	0.89088
3380.95988	0.89127
3379.03121	0.88800
3377.10254	0.87909
3375.17387	0.86798
3373.24520	0.86159
3371.31653	0.86407
3369.38786	0.87367
3367.45919	0.88578
3365.53052	0.89694
3363.60185	0.90595
3361.67317	0.91298
3359.74450	0.91846
3357.81583	0.92266
3355.88716	0.92583
3353.95849	0.92827
3352.02982	0.93017
3350.10115	0.93156
3348.17248	0.93242
3346.24381	0.93283
3344.31514	0.93285
3342.38647	0.93232
3340.45780	0.93117
3338.52913	0.92932
3336.60045	0.92655
3334.67178	0.92273
3332.74311	0.91799
3330.81444	0.91272
3328.88577	0.90755
3326.95710	0.90335
3325.02843	0.90066
3323.09976	0.89918
3321.17109	0.89816
3319.24242	0.89708
3317.31375	0.89568
3315.38508	0.89385
3313.45641	0.89165
3311.52773	0.88929
3309.59906	0.88705
3307.67039	0.88519
3305.74172	0.88377
3303.81305	0.88284
3301.88438	0.88243
3299.95571	0.88247
3298.02704	0.88295
3296.09837	0.88378
3294.16970	0.88480
3292.24103	0.88599
3290.31236	0.88723
3288.38368	0.88841
3286.45501	0.88955
3284.52634	0.89069
3282.59767	0.89183
3280.66900	0.89296
3278.74033	0.89406
3276.81166	0.89509
3274.88299	0.89604
3272.95432	0.89695
3271.02565	0.89783
3269.09698	0.89868
3267.16831	0.89948
3265.23964	0.90023
3263.31096	0.90087
3261.38229	0.90139
3259.45362	0.90189
3257.52495	0.90238
3255.59628	0.90282
3253.66761	0.90318
3251.73894	0.90336
3249.81027	0.90336
3247.88160	0.90340
3245.95293	0.90352
3244.02426	0.90360
3242.09559	0.90361
3240.16692	0.90348
3238.23824	0.90308
3236.30957	0.90246
3234.38090	0.90184
3232.45223	0.90122
3230.52356	0.90039
3228.59489	0.89920
3226.66622	0.89773
3224.73755	0.89603
3222.80888	0.89407
3220.88021	0.89194
3218.95154	0.88974
3217.02287	0.88747
3215.09420	0.88520
3213.16552	0.88295
3211.23685	0.88072
3209.30818	0.87860
3207.37951	0.87679
3205.45084	0.87532
3203.52217	0.87409
3201.59350	0.87312
3199.66483	0.87253
3197.73616	0.87241
3195.80749	0.87270
3193.87882	0.87336
3191.95015	0.87446
3190.02148	0.87599
3188.09280	0.87781
3186.16413	0.87981
3184.23546	0.88192
3182.30679	0.88406
3180.37812	0.88627
3178.44945	0.88860
3176.52078	0.89096
3174.59211	0.89312
3172.66344	0.89508
3170.73477	0.89701
3168.80610	0.89886
3166.87743	0.90056
3164.94875	0.90218
3163.02008	0.90371
3161.09141	0.90508
3159.16274	0.90629
3157.23407	0.90743
3155.30540	0.90859
3153.37673	0.90968
3151.44806	0.91064
3149.51939	0.91159
3147.59072	0.91252
3145.66205	0.91338
3143.73338	0.91418
3141.80471	0.91495
3139.87603	0.91568
3137.94736	0.91636
3136.01869	0.91700
3134.09002	0.91757
3132.16135	0.91811
3130.23268	0.91866
3128.30401	0.91920
3126.37534	0.91977
3124.44667	0.92038
3122.51800	0.92096
3120.58933	0.92148
3118.66066	0.92198
3116.73199	0.92249
3114.80331	0.92291
3112.87464	0.92325
3110.94597	0.92359
3109.01730	0.92392
3107.08863	0.92416
3105.15996	0.92428
3103.23129	0.92434
3101.30262	0.92446
3099.37395	0.92470
3097.44528	0.92502
3095.51661	0.92546
3093.58794	0.92593
3091.65927	0.92628
3089.73059	0.92653
3087.80192	0.92684
3085.87325	0.92719
3083.94458	0.92749
3082.01591	0.92776
3080.08724	0.92801
3078.15857	0.92821
3076.22990	0.92841
3074.30123	0.92859
3072.37256	0.92874
3070.44389	0.92887
3068.51522	0.92903
3066.58654	0.92924
3064.65787	0.92948
3062.72920	0.92952
3060.80053	0.92933
3058.87186	0.92920
3056.94319	0.92941
3055.01452	0.92990
3053.08585	0.93018
3051.15718	0.92985
3049.22851	0.92898
3047.29984	0.92801
3045.37117	0.92741
3043.44250	0.92737
3041.51382	0.92786
3039.58515	0.92875
3037.65648	0.92959
3035.72781	0.92972
3033.79914	0.92895
3031.87047	0.92773
3029.94180	0.92678
3028.01313	0.92674
3026.08446	0.92744
3024.15579	0.92828
3022.22712	0.92861
3020.29845	0.92773
3018.36978	0.92541
3016.44110	0.92226
3014.51243	0.91863
3012.58376	0.91422
3010.65509	0.90976
3008.72642	0.90761
3006.79775	0.90940
3004.86908	0.91407
3002.94041	0.91912
3001.01174	0.92300
2999.08307	0.92560
2997.15440	0.92733
2995.22573	0.92858
2993.29706	0.92958
2991.36838	0.93047
2989.43971	0.93127
2987.51104	0.93185
2985.58237	0.93223
2983.65370	0.93241
2981.72503	0.93246
2979.79636	0.93254
2977.86769	0.93272
2975.93902	0.93289
2974.01035	0.93304
2972.08168	0.93319
2970.15301	0.93335
2968.22433	0.93341
2966.29566	0.93338
2964.36699	0.93339
2962.43832	0.93352
2960.50965	0.93377
2958.58098	0.93402
2956.65231	0.93421
2954.72364	0.93431
2952.79497	0.93440
2950.86630	0.93453
2948.93763	0.93466
2947.00896	0.93469
2945.08029	0.93475
2943.15161	0.93495
2941.22294	0.93522
2939.29427	0.93546
2937.36560	0.93558
2935.43693	0.93562
2933.50826	0.93566
2931.57959	0.93567
2929.65092	0.93567
2927.72225	0.93572
2925.79358	0.93580
2923.86491	0.93585
2921.93624	0.93584
2920.00757	0.93574
2918.07889	0.93562
2916.15022	0.93563
2914.22155	0.93576
2912.29288	0.93593
2910.36421	0.93612
2908.43554	0.93632
2906.50687	0.93648
2904.57820	0.93658
2902.64953	0.93665
2900.72086	0.93664
2898.79219	0.93658
2896.86352	0.93656
2894.93485	0.93663
2893.00617	0.93676
2891.07750	0.93690
2889.14883	0.93695
2887.22016	0.93701
2885.29149	0.93721
2883.36282	0.93746
2881.43415	0.93766
2879.50548	0.93785
2877.57681	0.93803
2875.64814	0.93813
2873.71947	0.93823
2871.79080	0.93838
2869.86213	0.93858
2867.93345	0.93876
2866.00478	0.93893
2864.07611	0.93908
2862.14744	0.93916
2860.21877	0.93919
2858.29010	0.93927
2856.36143	0.93943
2854.43276	0.93960
2852.50409	0.93969
2850.57542	0.93968
2848.64675	0.93968
2846.71808	0.93975
2844.78940	0.93989
2842.86073	0.94003
2840.93206	0.94010
2839.00339	0.94011
2837.07472	0.94017
2835.14605	0.94030
2833.21738	0.94040
2831.28871	0.94044
2829.36004	0.94052
2827.43137	0.94062
2825.50270	0.94069
2823.57403	0.94065
2821.64536	0.94061
2819.71668	0.94064
2817.78801	0.94072
2815.85934	0.94079
2813.93067	0.94081
2812.00200	0.94078
2810.07333	0.94076
2808.14466	0.94080
2806.21599	0.94086
2804.28732	0.94091
2802.35865	0.94096
2800.42998	0.94097
2798.50131	0.94093
2796.57264	0.94087
2794.64396	0.94080
2792.71529	0.94066
2790.78662	0.94047
2788.85795	0.94034
2786.92928	0.94027
2785.00061	0.94019
2783.07194	0.94002
2781.14327	0.93984
2779.21460	0.93973
2777.28593	0.93959
2775.35726	0.93938
2773.42859	0.93923
2771.49992	0.93920
2769.57124	0.93918
2767.64257	0.93911
2765.71390	0.93897
2763.78523	0.93881
2761.85656	0.93873
2759.92789	0.93871
2757.99922	0.93868
2756.07055	0.93865
2754.14188	0.93867
2752.21321	0.93880
2750.28454	0.93894
2748.35587	0.93904
2746.42719	0.93913
2744.49852	0.93928
2742.56985	0.93946
2740.64118	0.93965
2738.71251	0.93988
2736.78384	0.94005
2734.85517	0.94011
2732.92650	0.94012
2730.99783	0.94016
2729.06916	0.94025
2727.14049	0.94030
2725.21182	0.94028
2723.28315	0.94020
2721.35447	0.94011
2719.42580	0.94006
2717.49713	0.94007
2715.56846	0.94012
2713.63979	0.94016
2711.71112	0.94018
2709.78245	0.94017
2707.85378	0.94011
2705.92511	0.94006
2703.99644	0.94008
2702.06777	0.94016
2700.13910	0.94017
2698.21043	0.94009
2696.28175	0.94000
2694.35308	0.93994
2692.42441	0.93990
2690.49574	0.93988
2688.56707	0.93991
2686.63840	0.94003
2684.70973	0.94018
2682.78106	0.94030
2680.85239	0.94039
2678.92372	0.94049
2676.99505	0.94062
2675.06638	0.94078
2673.13771	0.94091
2671.20903	0.94097
2669.28036	0.94104
2667.35169	0.94111
2665.42302	0.94111
2663.49435	0.94104
2661.56568	0.94095
2659.63701	0.94088
2657.70834	0.94074
2655.77967	0.94050
2653.85100	0.94026
2651.92233	0.94011
2649.99366	0.94002
2648.06499	0.94000
2646.13631	0.94002
2644.20764	0.94006
2642.27897	0.94009
2640.35030	0.94003
2638.42163	0.93986
2636.49296	0.93974
2634.56429	0.93972
2632.63562	0.93975
2630.70695	0.93975
2628.77828	0.93965
2626.84961	0.93950
2624.92094	0.93941
2622.99226	0.93939
2621.06359	0.93944
2619.13492	0.93948
2617.20625	0.93946
2615.27758	0.93942
2613.34891	0.93943
2611.42024	0.93945
2609.49157	0.93941
2607.56290	0.93936
2605.63423	0.93936
2603.70556	0.93934
2601.77689	0.93923
2599.84822	0.93905
2597.91954	0.93884
2595.99087	0.93858
2594.06220	0.93830
2592.13353	0.93810
2590.20486	0.93804
2588.27619	0.93810
2586.34752	0.93824
2584.41885	0.93834
2582.49018	0.93836
2580.56151	0.93836
2578.63284	0.93842
2576.70417	0.93851
2574.77550	0.93860
2572.84682	0.93864
2570.91815	0.93865
2568.98948	0.93865
2567.06081	0.93862
2565.13214	0.93859
2563.20347	0.93857
2561.27480	0.93860
2559.34613	0.93866
2557.41746	0.93871
2555.48879	0.93873
2553.56012	0.93871
2551.63145	0.93864
2549.70278	0.93858
2547.77410	0.93869
2545.84543	0.93889
2543.91676	0.93894
2541.98809	0.93877
2540.05942	0.93858
2538.13075	0.93845
2536.20208	0.93834
2534.27341	0.93822
2532.34474	0.93815
2530.41607	0.93811
2528.48740	0.93798
2526.55873	0.93780
2524.63005	0.93778
2522.70138	0.93793
2520.77271	0.93812
2518.84404	0.93833
2516.91537	0.93852
2514.98670	0.93867
2513.05803	0.93877
2511.12936	0.93884
2509.20069	0.93887
2507.27202	0.93891
2505.34335	0.93899
2503.41468	0.93904
2501.48601	0.93903
2499.55733	0.93909
2497.62866	0.93925
2495.69999	0.93934
2493.77132	0.93937
2491.84265	0.93941
2489.91398	0.93942
2487.98531	0.93937
2486.05664	0.93936
2484.12797	0.93944
2482.19930	0.93949
2480.27063	0.93943
2478.34196	0.93929
2476.41329	0.93928
2474.48461	0.93942
2472.55594	0.93949
2470.62727	0.93942
2468.69860	0.93934
2466.76993	0.93928
2464.84126	0.93920
2462.91259	0.93912
2460.98392	0.93905
2459.05525	0.93894
2457.12658	0.93888
2455.19791	0.93899
2453.26924	0.93912
2451.34057	0.93908
2449.41189	0.93890
2447.48322	0.93881
2445.55455	0.93884
2443.62588	0.93889
2441.69721	0.93888
2439.76854	0.93885
2437.83987	0.93891
2435.91120	0.93911
2433.98253	0.93932
2432.05386	0.93940
2430.12519	0.93936
2428.19652	0.93935
2426.26784	0.93948
2424.33917	0.93972
2422.41050	0.93986
2420.48183	0.93983
2418.55316	0.93977
2416.62449	0.93975
2414.69582	0.93969
2412.76715	0.93959
2410.83848	0.93951
2408.90981	0.93947
2406.98114	0.93954
2405.05247	0.93970
2403.12380	0.93982
2401.19512	0.93993
2399.26645	0.94006
2397.33778	0.94019
2395.40911	0.94027
2393.48044	0.94036
2391.55177	0.94050
2389.62310	0.94060
2387.69443	0.94063
2385.76576	0.94068
2383.83709	0.94080
2381.90842	0.94097
2379.97975	0.94117
2378.05108	0.94134
2376.12240	0.94146
2374.19373	0.94172
2372.26506	0.94229
2370.33639	0.94308
2368.40772	0.94368
2366.47905	0.94393
2364.55038	0.94398
2362.62171	0.94400
2360.69304	0.94406
2358.76437	0.94408
2356.83570	0.94396
2354.90703	0.94366
2352.97836	0.94331
2351.04968	0.94285
2349.12101	0.94217
2347.19234	0.94158
2345.26367	0.94158
2343.33500	0.94197
2341.40633	0.94206
2339.47766	0.94189
2337.54899	0.94174
2335.62032	0.94161
2333.69165	0.94145
2331.76298	0.94133
2329.83431	0.94132
2327.90564	0.94129
2325.97696	0.94091
2324.04829	0.94019
2322.11962	0.93960
2320.19095	0.93936
2318.26228	0.93921
2316.33361	0.93898
2314.40494	0.93870
2312.47627	0.93839
2310.54760	0.93802
2308.61893	0.93762
2306.69026	0.93733
2304.76159	0.93720
2302.83291	0.93715
2300.90424	0.93704
2298.97557	0.93683
2297.04690	0.93658
2295.11823	0.93634
2293.18956	0.93608
2291.26089	0.93572
2289.33222	0.93528
2287.40355	0.93489
2285.47488	0.93457
2283.54621	0.93434
2281.61754	0.93426
2279.68887	0.93435
2277.76019	0.93446
2275.83152	0.93441
2273.90285	0.93422
2271.97418	0.93409
2270.04551	0.93412
2268.11684	0.93420
2266.18817	0.93428
2264.25950	0.93440
2262.33083	0.93450
2260.40216	0.93446
2258.47349	0.93437
2256.54482	0.93437
2254.61615	0.93460
2252.68747	0.93494
2250.75880	0.93501
2248.83013	0.93482
2246.90146	0.93461
2244.97279	0.93440
2243.04412	0.93421
2241.11545	0.93419
2239.18678	0.93433
2237.25811	0.93440
2235.32944	0.93429
2233.40077	0.93415
2231.47210	0.93410
2229.54343	0.93408
2227.61475	0.93394
2225.68608	0.93368
2223.75741	0.93348
2221.82874	0.93340
2219.90007	0.93335
2217.97140	0.93337
2216.04273	0.93355
2214.11406	0.93357
2212.18539	0.93319
2210.25672	0.93286
2208.32805	0.93277
2206.39938	0.93264
2204.47070	0.93255
2202.54203	0.93269
2200.61336	0.93277
2198.68469	0.93261
2196.75602	0.93232
2194.82735	0.93196
2192.89868	0.93154
2190.97001	0.93127
2189.04134	0.93138
2187.11267	0.93162
2185.18400	0.93165
2183.25533	0.93162
2181.32666	0.93178
2179.39798	0.93194
2177.46931	0.93199
2175.54064	0.93227
2173.61197	0.93286
2171.68330	0.93319
2169.75463	0.93279
2167.82596	0.93210
2165.89729	0.93162
2163.96862	0.93116
2162.03995	0.93072
2160.11128	0.93135
2158.18261	0.93343
2156.25394	0.93517
2154.32526	0.93534
2152.39659	0.93476
2150.46792	0.93435
2148.53925	0.93427
2146.61058	0.93442
2144.68191	0.93481
2142.75324	0.93530
2140.82457	0.93558
2138.89590	0.93556
2136.96723	0.93569
2135.03856	0.93619
2133.10989	0.93672
2131.18122	0.93695
2129.25254	0.93687
2127.32387	0.93664
2125.39520	0.93639
2123.46653	0.93628
2121.53786	0.93624
2119.60919	0.93609
2117.68052	0.93585
2115.75185	0.93565
2113.82318	0.93548
2111.89451	0.93532
2109.96584	0.93509
2108.03717	0.93487
2106.10849	0.93474
2104.17982	0.93472
2102.25115	0.93472
2100.32248	0.93467
2098.39381	0.93469
2096.46514	0.93484
2094.53647	0.93498
2092.60780	0.93508
2090.67913	0.93513
2088.75046	0.93501
2086.82179	0.93482
2084.89312	0.93467
2082.96445	0.93462
2081.03577	0.93469
2079.10710	0.93467
2077.17843	0.93442
2075.24976	0.93403
2073.32109	0.93372
2071.39242	0.93354
2069.46375	0.93334
2067.53508	0.93311
2065.60641	0.93299
2063.67774	0.93309
2061.74907	0.93322
2059.82040	0.93305
2057.89173	0.93270
2055.96305	0.93250
2054.03438	0.93245
2052.10571	0.93204
2050.17704	0.93126
2048.24837	0.93072
2046.31970	0.93050
2044.39103	0.93017
2042.46236	0.92976
2040.53369	0.92962
2038.60502	0.92974
2036.67635	0.92983
2034.74768	0.92997
2032.81901	0.93032
2030.89033	0.93077
2028.96166	0.93105
2027.03299	0.93084
2025.10432	0.93059
2023.17565	0.93078
2021.24698	0.93102
2019.31831	0.93101
2017.38964	0.93090
2015.46097	0.93071
2013.53230	0.93066
2011.60363	0.93057
2009.67496	0.93033
2007.74629	0.93050
2005.81761	0.93100
2003.88894	0.93121
2001.96027	0.93116
2000.03160	0.93109
1998.10293	0.93073
1996.17426	0.93000
1994.24559	0.92931
1992.31692	0.92907
1990.38825	0.92906
1988.45958	0.92882
1986.53091	0.92836
1984.60224	0.92782
1982.67356	0.92722
1980.74489	0.92675
1978.81622	0.92685
1976.88755	0.92758
1974.95888	0.92813
1973.03021	0.92807
1971.10154	0.92778
1969.17287	0.92777
1967.24420	0.92816
1965.31553	0.92867
1963.38686	0.92915
1961.45819	0.92965
1959.52952	0.92996
1957.60084	0.92994
1955.67217	0.92995
1953.74350	0.93017
1951.81483	0.93050
1949.88616	0.93089
1947.95749	0.93115
1946.02882	0.93112
1944.10015	0.93107
1942.17148	0.93138
1940.24281	0.93177
1938.31414	0.93206
1936.38547	0.93245
1934.45680	0.93292
1932.52812	0.93334
1930.59945	0.93360
1928.67078	0.93374
1926.74211	0.93387
1924.81344	0.93412
1922.88477	0.93449
1920.95610	0.93479
1919.02743	0.93512
1917.09876	0.93560
1915.17009	0.93592
1913.24142	0.93604
1911.31275	0.93624
1909.38408	0.93658
1907.45540	0.93687
1905.52673	0.93701
1903.59806	0.93713
1901.66939	0.93730
1899.74072	0.93743
1897.81205	0.93755
1895.88338	0.93773
1893.95471	0.93791
1892.02604	0.93806
1890.09737	0.93831
1888.16870	0.93854
1886.24003	0.93847
1884.31135	0.93823
1882.38268	0.93802
1880.45401	0.93789
1878.52534	0.93775
1876.59667	0.93736
1874.66800	0.93659
1872.73933	0.93542
1870.81066	0.93408
1868.88199	0.93288
1866.95332	0.93195
1865.02465	0.93131
1863.09598	0.93103
1861.16731	0.93111
1859.23863	0.93134
1857.30996	0.93167
1855.38129	0.93234
1853.45262	0.93349
1851.52395	0.93478
1849.59528	0.93585
1847.66661	0.93669
1845.73794	0.93757
1843.80927	0.93862
1841.88060	0.93933
1839.95193	0.93963
1838.02326	0.93996
1836.09459	0.94034
1834.16591	0.94056
1832.23724	0.94068
1830.30857	0.94104
1828.37990	0.94156
1826.45123	0.94183
1824.52256	0.94209
1822.59389	0.94231
1820.66522	0.94239
1818.73655	0.94258
1816.80788	0.94293
1814.87921	0.94321
1812.95054	0.94339
1811.02187	0.94361
1809.09319	0.94385
1807.16452	0.94398
1805.23585	0.94403
1803.30718	0.94411
1801.37851	0.94436
1799.44984	0.94474
1797.52117	0.94495
1795.59250	0.94496
1793.66383	0.94502
1791.73516	0.94535
1789.80649	0.94552
1787.87782	0.94534
1785.94915	0.94525
1784.02047	0.94542
1782.09180	0.94561
1780.16313	0.94579
1778.23446	0.94591
1776.30579	0.94590
1774.37712	0.94589
1772.44845	0.94611
1770.51978	0.94641
1768.59111	0.94646
1766.66244	0.94630
1764.73377	0.94598
1762.80510	0.94579
1760.87642	0.94583
1758.94775	0.94579
1757.01908	0.94580
1755.09041	0.94588
1753.16174	0.94591
1751.23307	0.94624
1749.30440	0.94698
1747.37573	0.94745
1745.44706	0.94749
1743.51839	0.94739
1741.58972	0.94740
1739.66105	0.94761
1737.73238	0.94768
1735.80370	0.94768
1733.87503	0.94827
1731.94636	0.94887
1730.01769	0.94884
1728.08902	0.94872
1726.16035	0.94867
1724.23168	0.94869
1722.30301	0.94864
1720.37434	0.94846
1718.44567	0.94856
1716.51700	0.94913
1714.58833	0.94935
1712.65966	0.94916
1710.73098	0.94900
1708.80231	0.94901
1706.87364	0.94934
1704.94497	0.94977
1703.01630	0.94982
1701.08763	0.94992
1699.15896	0.95052
1697.23029	0.95096
1695.30162	0.95117
1693.37295	0.95106
1691.44428	0.95074
1689.51561	0.95055
1687.58694	0.95040
1685.65826	0.95041
1683.72959	0.95099
1681.80092	0.95115
1679.87225	0.95070
1677.94358	0.95027
1676.01491	0.95008
1674.08624	0.95001
1672.15757	0.94977
1670.22890	0.94957
1668.30023	0.94940
1666.37156	0.94890
1664.44289	0.94823
1662.51421	0.94751
1660.58554	0.94669
1658.65687	0.94574
1656.72820	0.94481
1654.79953	0.94386
1652.87086	0.94242
1650.94219	0.94062
1649.01352	0.93870
1647.08485	0.93558
1645.15618	0.93117
1643.22751	0.92670
1641.29884	0.92158
1639.37017	0.91561
1637.44149	0.90784
1635.51282	0.89562
1633.58415	0.88455
1631.65548	0.87832
1629.72681	0.87466
1627.79814	0.87352
1625.86947	0.87498
1623.94080	0.87882
1622.01213	0.88415
1620.08346	0.88851
1618.15479	0.89298
1616.22612	0.89878
1614.29745	0.90144
1612.36877	0.90037
1610.44010	0.89845
1608.51143	0.89805
1606.58276	0.90013
1604.65409	0.90402
1602.72542	0.90889
1600.79675	0.91384
1598.86808	0.91820
1596.93941	0.92198
1595.01074	0.92548
1593.08207	0.92856
1591.15340	0.93102
1589.22473	0.93292
1587.29605	0.93451
1585.36738	0.93631
1583.43871	0.93831
1581.51004	0.94020
1579.58137	0.94175
1577.65270	0.94345
1575.72403	0.94580
1573.79536	0.94742
1571.86669	0.94830
1569.93802	0.94953
1568.00935	0.95102
1566.08068	0.95200
1564.15200	0.95276
1562.22333	0.95332
1560.29466	0.95397
1558.36599	0.95587
1556.43732	0.95691
1554.50865	0.95721
1552.57998	0.95750
1550.65131	0.95785
1548.72264	0.95822
1546.79397	0.95850
1544.86530	0.95894
1542.93663	0.95952
1541.00796	0.96038
1539.07928	0.96077
1537.15061	0.96041
1535.22194	0.95944
1533.29327	0.95686
1531.36460	0.95214
1529.43593	0.94427
1527.50726	0.92706
1525.57859	0.89478
1523.64992	0.85188
1521.72125	0.80025
1519.79258	0.75735
1517.86391	0.73044
1515.93524	0.70680
1514.00656	0.69089
1512.07789	0.68491
1510.14922	0.68493
1508.22055	0.69437
1506.29188	0.72106
1504.36321	0.74131
1502.43454	0.75327
1500.50587	0.76664
1498.57720	0.78360
1496.64853	0.80237
1494.71986	0.81643
1492.79119	0.82483
1490.86252	0.83305
1488.93384	0.84353
1487.00517	0.85168
1485.07650	0.85663
1483.14783	0.86068
1481.21916	0.86487
1479.29049	0.86871
1477.36182	0.87192
1475.43315	0.87526
1473.50448	0.87939
1471.57581	0.88378
1469.64714	0.88626
1467.71847	0.88766
1465.78980	0.88964
1463.86112	0.89197
1461.93245	0.89284
1460.00378	0.89185
1458.07511	0.88908
1456.14644	0.88573
1454.21777	0.88387
1452.28910	0.88281
1450.36043	0.88251
1448.43176	0.88219
1446.50309	0.88056
1444.57442	0.87960
1442.64575	0.88145
1440.71707	0.88507
1438.78840	0.88892
1436.85973	0.89352
1434.93106	0.89776
1433.00239	0.90007
1431.07372	0.90197
1429.14505	0.90404
1427.21638	0.90564
1425.28771	0.90693
1423.35904	0.90818
1421.43037	0.90918
1419.50170	0.91043
1417.57303	0.91202
1415.64435	0.91287
1413.71568	0.91335
1411.78701	0.91400
1409.85834	0.91474
1407.92967	0.91543
1406.00100	0.91624
1404.07233	0.91717
1402.14366	0.91780
1400.21499	0.91833
1398.28632	0.91905
1396.35765	0.91982
1394.42898	0.92066
1392.50031	0.92130
1390.57163	0.92167
1388.64296	0.92219
1386.71429	0.92301
1384.78562	0.92365
1382.85695	0.92409
1380.92828	0.92461
1378.99961	0.92519
1377.07094	0.92575
1375.14227	0.92643
1373.21360	0.92721
1371.28493	0.92775
1369.35626	0.92815
1367.42759	0.92854
1365.49891	0.92880
1363.57024	0.92902
1361.64157	0.92918
1359.71290	0.92892
1357.78423	0.92825
1355.85556	0.92722
1353.92689	0.92570
1351.99822	0.92359
1350.06955	0.92100
1348.14088	0.91819
1346.21221	0.91529
1344.28354	0.91243
1342.35486	0.91047
1340.42619	0.91088
1338.49752	0.91362
1336.56885	0.91665
1334.64018	0.91904
1332.71151	0.92104
1330.78284	0.92256
1328.85417	0.92335
1326.92550	0.92313
1324.99683	0.92153
1323.06816	0.91813
1321.13949	0.91265
1319.21082	0.90502
1317.28214	0.89599
1315.35347	0.88700
1313.42480	0.87936
1311.49613	0.87442
1309.56746	0.87306
1307.63879	0.87537
1305.71012	0.88089
1303.78145	0.88855
1301.85278	0.89697
1299.92411	0.90503
1297.99544	0.91226
1296.06677	0.91864
1294.13810	0.92425
1292.20942	0.92916
1290.28075	0.93351
1288.35208	0.93741
1286.42341	0.94082
1284.49474	0.94364
1282.56607	0.94570
1280.63740	0.94658
1278.70873	0.94529
1276.78006	0.94025
1274.85139	0.92936
1272.92272	0.91073
1270.99405	0.88375
1269.06538	0.85015
1267.13670	0.81456
1265.20803	0.78367
1263.27936	0.76283
1261.35069	0.75228
1259.42202	0.74889
1257.49335	0.75109
1255.56468	0.75931
1253.63601	0.77244
1251.70734	0.78712
1249.77867	0.80046
1247.85000	0.81141
1245.92133	0.82021
1243.99266	0.82750
1242.06398	0.83377
1240.13531	0.83936
1238.20664	0.84454
1236.27797	0.84942
1234.34930	0.85414
1232.42063	0.85886
1230.49196	0.86356
1228.56329	0.86812
1226.63462	0.87244
1224.70595	0.87642
1222.77728	0.88000
1220.84861	0.88324
1218.91993	0.88624
1216.99126	0.88894
1215.06259	0.89131
1213.13392	0.89341
1211.20525	0.89531
1209.27658	0.89704
1207.34791	0.89864
1205.41924	0.90017
1203.49057	0.90159
1201.56190	0.90287
1199.63323	0.90405
1197.70456	0.90515
1195.77589	0.90618
1193.84721	0.90719
1191.91854	0.90819
1189.98987	0.90913
1188.06120	0.91005
1186.13253	0.91089
1184.20386	0.91140
1182.27519	0.91116
1180.34652	0.91028
1178.41785	0.91001
1176.48918	0.91107
1174.56051	0.91269
1172.63184	0.91406
1170.70317	0.91518
1168.77449	0.91619
1166.84582	0.91712
1164.91715	0.91795
1162.98848	0.91871
1161.05981	0.91940
1159.13114	0.92005
1157.20247	0.92072
1155.27380	0.92143
1153.34513	0.92205
1151.41646	0.92247
1149.48779	0.92261
1147.55912	0.92237
1145.63045	0.92148
1143.70177	0.91954
1141.77310	0.91614
1139.84443	0.91093
1137.91576	0.90347
1135.98709	0.89337
1134.05842	0.88126
1132.12975	0.86944
1130.20108	0.86060
1128.27241	0.85609
1126.34374	0.85609
1124.41507	0.86029
1122.48640	0.86740
1120.55772	0.87536
1118.62905	0.88257
1116.70038	0.88853
1114.77171	0.89338
1112.84304	0.89736
1110.91437	0.90063
1108.98570	0.90328
1107.05703	0.90548
1105.12836	0.90737
1103.19969	0.90897
1101.27102	0.91028
1099.34235	0.91139
1097.41368	0.91236
1095.48500	0.91324
1093.55633	0.91412
1091.62766	0.91495
1089.69899	0.91567
1087.77032	0.91631
1085.84165	0.91686
1083.91298	0.91725
1081.98431	0.91750
1080.05564	0.91762
1078.12697	0.91743
1076.19830	0.91662
1074.26963	0.91478
1072.34096	0.91127
1070.41228	0.90540
1068.48361	0.89773
1066.55494	0.89138
1064.62627	0.89003
1062.69760	0.89408
1060.76893	0.90054
1058.84026	0.90646
1056.91159	0.91074
1054.98292	0.91353
1053.05425	0.91528
1051.12558	0.91622
1049.19691	0.91631
1047.26824	0.91546
1045.33956	0.91376
1043.41089	0.91181
1041.48222	0.91073
1039.55355	0.91124
1037.62488	0.91302
1035.69621	0.91531
1033.76754	0.91755
1031.83887	0.91947
1029.91020	0.92111
1027.98153	0.92256
1026.05286	0.92388
1024.12419	0.92499
1022.19551	0.92586
1020.26684	0.92645
1018.33817	0.92631
1016.40950	0.92516
1014.48083	0.92421
1012.55216	0.92440
1010.62349	0.92486
1008.69482	0.92525
1006.76615	0.92643
1004.83748	0.92834
1002.90881	0.92992
1000.98014	0.93076
999.05147	0.93135
997.12279	0.93194
995.19412	0.93245
993.26545	0.93285
991.33678	0.93316
989.40811	0.93343
987.47944	0.93372
985.55077	0.93404
983.62210	0.93436
981.69343	0.93462
979.76476	0.93483
977.83609	0.93512
975.90742	0.93549
973.97875	0.93584
972.05007	0.93622
970.12140	0.93667
968.19273	0.93706
966.26406	0.93732
964.33539	0.93758
962.40672	0.93791
960.47805	0.93822
958.54938	0.93842
956.62071	0.93851
954.69204	0.93835
952.76337	0.93738
950.83470	0.93496
948.90603	0.93173
946.97735	0.93014
945.04868	0.93127
943.12001	0.93285
941.19134	0.93302
939.26267	0.93282
937.33400	0.93261
935.40533	0.93015
933.47666	0.92597
931.54799	0.92496
929.61932	0.92821
927.69065	0.93164
925.76198	0.93335
923.83331	0.93416
921.90463	0.93450
919.97596	0.93434
918.04729	0.93387
916.11862	0.93335
914.18995	0.93290
912.26128	0.93248
910.33261	0.93196
908.40394	0.93130
906.47527	0.93055
904.54660	0.92966
902.61793	0.92870
900.68926	0.92782
898.76058	0.92701
896.83191	0.92627
894.90324	0.92567
892.97457	0.92529
891.04590	0.92496
889.11723	0.92448
887.18856	0.92387
885.25989	0.92325
883.33122	0.92256
881.40255	0.92167
879.47388	0.92057
877.54521	0.91935
875.61654	0.91798
873.68786	0.91640
871.75919	0.91453
869.83052	0.91215
867.90185	0.90925
865.97318	0.90603
864.04451	0.90252
862.11584	0.89858
860.18717	0.89415
858.25850	0.88914
856.32983	0.88346
854.40116	0.87694
852.47249	0.86932
850.54382	0.86041
848.61514	0.85007
846.68647	0.83787
844.75780	0.82335
842.82913	0.80639
840.90046	0.78721
838.97179	0.76648
837.04312	0.74574
835.11445	0.72683
833.18578	0.71077
831.25711	0.69793
829.32844	0.68748
827.39977	0.67596
825.47110	0.66051
823.54242	0.64488
821.61375	0.63889
819.68508	0.64994
817.75641	0.67505
815.82774	0.70326
813.89907	0.72549
811.97040	0.73959
810.04173	0.74735
808.11306	0.75072
806.18439	0.75096
804.25572	0.74907
802.32705	0.74599
800.39837	0.74248
798.46970	0.73919
796.54103	0.73684
794.61236	0.73631
792.68369	0.73827
790.75502	0.74288
788.82635	0.74988
786.89768	0.75838
784.96901	0.76728
783.04034	0.77567
781.11167	0.78300
779.18300	0.78952
777.25433	0.79653
775.32565	0.80602
773.39698	0.81989
771.46831	0.83841
769.53964	0.85918
767.61097	0.87852
765.68230	0.89364
763.75363	0.90360
761.82496	0.90868
759.89629	0.90935
757.96762	0.90623
756.03895	0.90012
754.11028	0.89143
752.18161	0.88035
750.25293	0.86745
748.32426	0.85335
746.39559	0.83846
744.46692	0.82318
742.53825	0.80797
740.60958	0.79327
738.68091	0.77921
736.75224	0.76574
734.82357	0.75280
732.89490	0.74030
730.96623	0.72796
729.03756	0.71569
727.10889	0.70371
725.18021	0.69224
723.25154	0.68124
721.32287	0.67055
719.39420	0.66039
717.46553	0.65155
715.53686	0.64428
713.60819	0.63848
711.67952	0.63442
709.75085	0.63227
707.82218	0.63152
705.89351	0.63104
703.96484	0.63009
702.03616	0.62884
700.10749	0.62789
698.17882	0.62758
696.25015	0.62790
694.32148	0.62875
692.39281	0.62985
690.46414	0.63102
688.53547	0.63228
686.60680	0.63360
684.67813	0.63488
682.74946	0.63609
680.82079	0.63736
678.89212	0.63850
676.96344	0.63907
675.03477	0.63906
673.10610	0.63877
671.17743	0.63845
669.24876	0.63858
667.32009	0.63923
665.39142	0.63925
663.46275	0.63887
661.53408	0.63852
659.60541	0.63814
657.67674	0.63784
655.74807	0.63783
653.81940	0.63819
651.89072	0.63934
649.96205	0.64230
648.03338	0.64688
646.10471	0.64961
644.17604	0.64850
642.24737	0.64641
640.31870	0.64605
638.39003	0.64675
636.46136	0.64756
634.53269	0.64852
632.60402	0.64982
630.67535	0.65157
628.74668	0.65346
626.81800	0.65550
624.88933	0.65827
622.96066	0.66091
621.03199	0.66208
619.10332	0.66254
617.17465	0.66375
615.24598	0.66564
613.31731	0.66719
611.38864	0.66876
609.45997	0.67123
607.53130	0.67398
605.60263	0.67664
603.67396	0.67947
601.74528	0.68184
599.81661	0.68313
